# sto-3g, QED-FCI, Np = 1, omega = 0.12086, lz = 0.05, r_array = np.linspace(1.4, 2.2, 50)
1.4, -7.874948071166416, -7.755688288298219, -7.74599211228811, -7.727606981203104, -7.727606981203104 
1.4163265306122448, -7.875901545036715, -7.756728414921172, -7.747646028382309, -7.7290418003030865, -7.7290418003030865 
1.4326530612244897, -7.876718906303602, -7.757638985964666, -7.749204278152862, -7.730368850615725, -7.730368850615725 
1.4489795918367345, -7.877406919076059, -7.758427353014435, -7.750671895219348, -7.731592520311051, -7.731592520311051 
1.4653061224489796, -7.877972023737117, -7.759100602743333, -7.752053641329434, -7.732716863423307, -7.732716863423307 
1.4816326530612245, -7.87842035629144, -7.759665581324781, -7.753354024708337, -7.733745613439126, -7.733745613439126 
1.4979591836734694, -7.8787577662641395, -7.760128917451012, -7.754577316957383, -7.73468219536714, -7.73468219536714 
1.5142857142857142, -7.878989833271282, -7.760497043881166, -7.755727568589532, -7.7355297365635485, -7.7355297365635485 
1.530612244897959, -7.8791218823766975, -7.760776217384952, -7.756808623323036, -7.736291076685325, -7.736291076685325 
1.546938775510204, -7.87915899833857, -7.760972536842803, -7.7578241312318355, -7.736968777210462, -7.736968777210462 
1.5632653061224488, -7.879106038843389, -7.76109195915446, -7.758777560847465, -7.737565131065016, -7.737565131065016 
1.5795918367346937, -7.878967646814837, -7.761140312481805, -7.759672210299019, -7.738082173005323, -7.738082173005323 
1.5959183673469388, -7.878748261878191, -7.761123306221871, -7.7605112175708655, -7.738521691519832, -7.738521691519832 
1.6122448979591837, -7.8784521310540185, -7.761046536984713, -7.76129756995237, -7.738885243124316, -7.738885243124316 
1.6285714285714286, -7.878083318746933, -7.760915489756554, -7.76203411274657, -7.739174170003828, -7.739174170003828 
1.6448979591836734, -7.877645716090201, -7.760735533395504, -7.762723557300472, -7.739389621978589, -7.739389621978589 
1.6612244897959183, -7.877143049699897, -7.7605119096657225, -7.763368488410635, -7.739532583695924, -7.739532583695924 
1.6775510204081634, -7.8765788898881315, -7.760249715232499, -7.763971371171754, -7.739603907748914, -7.739603907748914 
1.693877551020408, -7.875956658379139, -7.759953876371697, -7.764534557278197, -7.739604354013716, -7.739604354013716 
1.7102040816326531, -7.875279635568247, -7.759629116791754, -7.765060290871843, -7.73953463495587, -7.73953463495587 
1.726530612244898, -7.874550967359483, -7.759279919647989, -7.7655507139395175, -7.739395465857282, -7.739395465857282 
1.7428571428571429, -7.87377367161411, -7.758910485739712, -7.766007871311225, -7.739187618063123, -7.739187618063123 
1.7591836734693878, -7.87295064423937, -7.758524690727767, -7.766433715290936, -7.738911972473514, -7.738911972473514 
1.7755102040816326, -7.872084664943414, -7.758126044892313, -7.766830109950439, -7.738569569819317, -7.738569569819317 
1.7918367346938777, -7.871178402680533, -7.757717659265294, -7.767198835115524, -7.7381616539432745, -7.7381616539432745 
1.8081632653061224, -7.8702344208076696, -7.7573022217681755, -7.767541590070157, -7.737689704505252, -7.737689704505252 
1.8244897959183675, -7.869255181971978, -7.756881986213044, -7.767859997003579, -7.737155456300512, -7.737155456300512 
1.8408163265306123, -7.868243052746746, -7.756458775759284, -7.768155604222418, -7.736560903641036, -7.736560903641036 
1.8571428571428572, -7.867200308031335, -7.756034000869393, -7.768429889148427, -7.735908289794987, -7.735908289794987 
1.873469387755102, -7.8661291352300005, -7.7556086902638555, -7.768684261121672, -7.735200083021581, -7.735200083021581 
1.889795918367347, -7.865031638221799, -7.755183532117979, -7.7689200640259735, -7.734438941990359, -7.734438941990359 
1.906122448979592, -7.863909841133951, -7.754758921979794, -7.769138578753747, -7.733627674137392, -7.733627674137392 
1.9224489795918367, -7.8627656919287405, -7.754335013685149, -7.769341025525075, -7.732769190709949, -7.732769190709949 
1.9387755102040818, -7.861601065813663, -7.753911769849171, -7.769528566074839, -7.731866461946562, -7.731866461946562 
1.9551020408163267, -7.860417768483134, -7.753489009172078, -7.769702305720981, -7.730922475177907, -7.730922475177907 
1.9714285714285715, -7.859217539199792, -7.753066448631283, -7.769863295325915, -7.729940197799538, -7.729940197799538 
1.9877551020408164, -7.85800205372151, -7.752643739466524, -7.770012533158044, -7.72892254622331, -7.72892254622331 
2.0040816326530613, -7.856772927081413, -7.752220496633882, -7.770150966684119, -7.727872361180664, -7.727872361180664 
2.0204081632653064, -7.855531716224147, -7.751796321855877, -7.770279494251212, -7.72679238919374, -7.72679238919374 
2.036734693877551, -7.8542799225056426, -7.75137082094637, -7.770398966732791, -7.7256852696471725, -7.7256852696471725 
2.053061224489796, -7.8530189940587425, -7.750943616119765, -7.770510189097426, -7.724553526693468, -7.724553526693468 
2.069387755102041, -7.85175032802894, -7.750514354173181, -7.770613921926137, -7.723399565143734, -7.723399565143734 
2.085714285714286, -7.850475272683517, -7.750082711378423, -7.770710882881608, -7.72222566951386, -7.72222566951386 
2.1020408163265305, -7.849195129396416, -7.749648395849971, -7.77080174813449, -7.721034005469112, -7.721034005469112 
2.1183673469387756, -7.847911154511844, -7.749211148052601, -7.770887153751938, -7.719826623013529, -7.719826623013529 
2.1346938775510207, -7.846624561088219, -7.748770739998195, -7.770967697052361, -7.718605460880942, -7.718605460880942 
2.1510204081632653, -7.845336520524763, -7.748326973573933, -7.771043937930585, -7.717372351693666, -7.717372351693666 
2.1673469387755104, -7.844048164072016, -7.747879678344626, -7.771116400156032, -7.716129027550469, -7.716129027550469 
2.183673469387755, -7.842760584228652, -7.747428709089688, -7.771185572647644, -7.7148771257898, -7.7148771257898 
2.2, -7.8414748360253315, -7.746973943264626, -7.771251910726948, -7.713618194741322, -7.713618194741322 
