# sto-3g, QED-FCI, Np = 3, omega = 0.12086, lz = 0.05, r_array = np.linspace(1.4, 2.2, 50)
1.4, -7.874955897954898, -7.756651732181052, -7.747668857834258, -7.729081039393759, -7.729081039393759 
1.4163265306122448, -7.875909722948232, -7.7577366590063574, -7.749331045763328, -7.730502156207207, -7.730502156207207 
1.4326530612244897, -7.876727452453537, -7.758694110451797, -7.750897351100417, -7.731813790691821, -7.731813790691821 
1.4489795918367345, -7.87741585152668, -7.759531529903052, -7.7523728015671916, -7.733020233336607, -7.733020233336607 
1.4653061224489796, -7.877981361540664, -7.760256095197654, -7.7537621528101655, -7.734125441474911, -7.734125441474911 
1.4816326530612245, -7.878430119535295, -7.760874740666058, -7.75506990677816, -7.735133055255473, -7.735133055255473 
1.4979591836734694, -7.878767976117895, -7.761394177113587, -7.756300328632208, -7.736046412737197, -7.736046412737197 
1.5142857142857142, -7.879000512035944, -7.761820909578463, -7.757457462303682, -7.736868564507603, -7.736868564507603 
1.530612244897959, -7.87913305353605, -7.762161252633843, -7.758545144810602, -7.737602288280433, -7.737602288280433 
1.546938775510204, -7.879170686612865, -7.762421342929825, -7.7595670194319295, -7.738250103979471, -7.738250103979471 
1.5632653061224488, -7.8791182702453355, -7.762607148610597, -7.760526547834823, -7.738814289865197, -7.738814289865197 
1.5795918367346937, -7.87898044870811, -7.762724475194058, -7.7614270212408, -7.739296900291264, -7.739296900291264 
1.5959183673469388, -7.878761663038477, -7.7627789674850485, -7.762271570710639, -7.739699785679927, -7.739699785679927 
1.6122448979591837, -7.878466161732754, -7.7627761071238695, -7.763063176621849, -7.740024615263577, -7.740024615263577 
1.6285714285714286, -7.878098010737814, -7.762721205463707, -7.763804677405757, -7.740272903032177, -7.740272903032177 
1.6448979591836734, -7.877661102798629, -7.762619391645031, -7.764498777606514, -7.740446037143203, -7.740446037143203 
1.6612244897959183, -7.87715916621544, -7.7624755959963085, -7.7651480553182255, -7.740545312775999, -7.740545312775999 
1.6775510204081634, -7.87659577306001, -7.762294529241886, -7.765754969052548, -7.7405719680530645, -7.7405719680530645 
1.693877551020408, -7.875974346895146, -7.762080658416096, -7.766321864084311, -7.740527222222809, -7.740527222222809 
1.7102040816326531, -7.875298170036937, -7.761838180828209, -7.766850978318478, -7.740412314844033, -7.740412314844033 
1.726530612244898, -7.874570390395855, -7.761570997833309, -7.7673444477186875, -7.740228544295395, -7.740228544295395 
1.7428571428571429, -7.873794027928889, -7.761282690461594, -7.767804311334, -7.739977303628452, -7.739977303628452 
1.7591836734693878, -7.872971980731955, -7.760976499067519, -7.76823251595749, -7.7396601116678925, -7.7396601116678925 
1.7755102040816326, -7.872107030798615, -7.760655309023489, -7.768630920447479, -7.739278637393793, -7.739278637393793 
1.7918367346938777, -7.871201849469152, -7.760321644083833, -7.769001299740329, -7.738834716034863, -7.738834716034863 
1.8081632653061224, -7.870259002590931, -7.759977668417166, -7.769345348580475, -7.738330355924531, -7.738330355924531 
1.8244897959183675, -7.869280955409923, -7.759625197533703, -7.769664684992532, -7.737767735939485, -7.737767735939485 
1.8408163265306123, -7.868270077210514, -7.759265717535234, -7.769960853517268, -7.737149194135191, -7.737149194135191 
1.8571428571428572, -7.867228645719302, -7.7589004114126086, -7.770235328232386, -7.7364772088919445, -7.7364772088919445 
1.873469387755102, -7.866158851287724, -7.758530190609498, -7.770489515577256, -7.735754374389584, -7.735754374389584 
1.889795918367347, -7.865062800865659, -7.75815572981386, -7.770724756998909, -7.734983372481087, -7.734983372481087 
1.906122448979592, -7.8639425217782, -7.757777502937601, -7.770942331435917, -7.734166943035683, -7.734166943035683 
1.9224489795918367, -7.8627999653158795, -7.75739581845505, -7.771143457655099, -7.733307854608527, -7.733307854608527 
1.9387755102040818, -7.861637010147729, -7.757010852625917, -7.77132929645479, -7.732408876936705, -7.732408876936705 
1.9551020408163267, -7.86045546556548, -7.756622679551235, -7.771500952747635, -7.731472756336268, -7.731472756336268 
1.9714285714285715, -7.859257074567001, -7.756231297435143, -7.771659477534745, -7.730502194649916, -7.730502194649916 
1.9877551020408164, -7.858043516784856, -7.75583665079921, -7.771805869781763, -7.729499832016611, -7.729499832016611 
2.0040816326530613, -7.856816411266751, -7.755438648697537, -7.771941078207163, -7.728468233434581, -7.728468233434581 
2.0204081632653064, -7.855577319112395, -7.755037179192578, -7.772066002991254, -7.727409878871799, -7.727409878871799 
2.036734693877551, -7.8543277459719905, -7.754632120489328, -7.772181497414711, -7.726327156542993, -7.726327156542993 
2.053061224489796, -7.853069144409967, -7.754223349189817, -7.772288369433924, -7.725222358902928, -7.725222358902928 
2.069387755102041, -7.851802916137599, -7.7538107461471055, -7.772387383199645, -7.724097680888997, -7.724097680888997 
2.085714285714286, -7.850530414117602, -7.75339420037797, -7.772479260525556, -7.722955219964461, -7.722955219964461 
2.1020408163265305, -7.849252944543029, -7.7529736114512255, -7.772564682311598, -7.7217969775538595, -7.7217969775538595 
2.1183673469387756, -7.847971768693227, -7.752548890716821, -7.7726442899275465, -7.720624861514568, -7.720624861514568 
2.1346938775510207, -7.846688104668203, -7.752119961683246, -7.77271868656044, -7.7194406893425, -7.7194406893425 
2.1510204081632653, -7.845403129003819, -7.751686759797431, -7.772788438530377, -7.718246191864797, -7.718246191864797 
2.1673469387755104, -7.844117978168641, -7.751249231830001, -7.772854076577079, -7.717043017220249, -7.717043017220249 
2.183673469387755, -7.842833749944745, -7.750807335026251, -7.772916097121024, -7.715832734972334, -7.715832734972334 
2.2, -7.841551504693197, -7.750361036144522, -7.772974963500473, -7.714616840234807, -7.714616840234807 

